%"Time","avg(Temp)"
10,316.71
20,334.52
30,349.37
40,362.12
50,373.49
60,383.88
70,393.54
80,402.64
90,411.26
100,419.48
110,427.34
120,434.88
130,442.12
140,449.1
150,455.85
160,462.39
170,468.74
180,474.91
190,480.93
200,486.81
210,492.56
220,498.19
230,503.71
240,509.13
250,514.47
260,519.71
270,524.87
280,529.96
290,534.97
300,539.92
310,544.8
320,549.61
330,554.36
340,559.05
350,563.68
360,568.26
370,572.77
380,577.24
390,581.64
400,586
410,590.3
420,594.56
430,598.76
440,602.91
450,607.02
460,611.08
470,615.09
480,619.05
490,622.97
500,626.84
510,630.67
520,634.45
530,638.2
540,641.89
550,645.55
560,649.16
570,652.74
580,656.27
590,659.76
600,663.21
610,666.62
620,670
630,673.33
640,676.63
650,679.89
660,683.11
670,686.29
680,689.43
690,692.54
700,695.6
710,698.63
720,701.61
730,704.55
740,707.46
750,710.32
760,713.14
770,715.92
780,718.65
790,721.34
800,723.99
810,726.6
820,729.15
830,731.67
840,734.14
850,736.56
860,738.94
870,741.27
880,743.55
890,745.79
900,747.99
910,750.13
920,752.24
930,754.29
940,756.3
950,758.27
960,760.19
970,762.06
980,763.89
990,765.68
1000,767.42
1010,769.13
1020,770.78
1030,772.4
1040,773.98
1050,775.51
1060,777.01
1070,778.46
1080,779.88
1090,781.26
1100,782.61
1110,783.91
1120,785.18
1130,786.42
1140,787.62
1150,788.79
1160,789.93
1170,791.03
1180,792.11
1190,793.15
1200,794.16
1210,795.15
1220,796.1
1230,797.03
1240,797.93
1250,798.81
1260,799.66
1270,800.48
1280,801.28
1290,802.06
1300,802.81
1310,803.54
1320,804.25
1330,804.94
1340,805.61
1350,806.26
1360,806.88
1370,807.49
1380,808.08
1390,808.66
1400,809.21
1410,809.75
1420,810.27
1430,810.78
1440,811.27
1450,811.75
1460,812.21
1470,812.65
1480,813.09
1490,813.51
1500,813.91
1510,814.31
1520,814.69
1530,815.06
1540,815.42
1550,815.77
1560,816.1
1570,816.43
1580,816.75
1590,817.05
1600,817.35
1610,817.64
1620,817.91
1630,818.18
1640,818.45
1650,818.7
1660,818.94
1670,819.18
1680,819.41
1690,819.63
1700,819.85
1710,820.06
1720,820.26
1730,820.45
1740,820.64
1750,820.83
1760,821.01
1770,821.18
1780,821.34
1790,821.51
1800,821.66
1810,821.81
1820,821.96
1830,822.1
1840,822.24
1850,822.37
1860,822.5
1870,822.62
1880,822.74
1890,822.86
1900,822.97
1910,823.08
1920,823.19
1930,823.29
1940,823.39
1950,823.49
1960,823.58
1970,823.67
1980,823.76
1990,823.84
2000,823.92
2010,824
2020,824.08
2030,824.15
2040,824.22
2050,824.29
2060,824.36
2070,824.43
2080,824.49
2090,824.55
2100,824.61
2110,824.67
2120,824.72
2130,824.77
2140,824.83
2150,824.88
2160,824.92
2170,824.97
2180,825.02
2190,825.06
2200,825.1
2210,825.14
2220,825.18
2230,825.22
2240,825.26
2250,825.3
2260,825.33
2270,825.36
2280,825.4
2290,825.43
2300,825.46
2310,825.49
2320,825.52
2330,825.55
2340,825.57
2350,825.6
2360,825.62
2370,825.65
2380,825.67
2390,825.69
2400,825.71
2410,825.73
2420,825.75
2430,825.77
2440,825.79
2450,825.81
2460,825.83
2470,825.84
2480,825.86
2490,825.88
2500,825.89
2510,825.91
2520,825.92
2530,825.94
2540,825.95
2550,825.96
2560,825.98
2570,825.99
2580,826
2590,826.01
2600,826.02
2610,826.03
2620,826.04
2630,826.05
2640,826.06
2650,826.07
2660,826.08
2670,826.09
2680,826.1
2690,826.1
2700,826.11
2710,826.12
2720,826.13
2730,826.13
2740,826.14
2750,826.15
2760,826.15
2770,826.16
2780,826.16
2790,826.17
2800,826.17
2810,826.18
2820,826.19
2830,826.19
2840,826.19
2850,826.2
2860,826.2
2870,826.21
2880,826.21
2890,826.22
2900,826.22
2910,826.22
2920,826.23
2930,826.23
2940,826.23
2950,826.24
2960,826.24
2970,826.24
2980,826.25
2990,826.25
3000,826.25
3010,826.26
3020,826.26
3030,826.26
3040,826.26
3050,826.27
3060,826.27
3070,826.27
3080,826.27
3090,826.27
3100,826.28
3110,826.28
3120,826.28
3130,826.28
3140,826.28
3150,826.28
3160,826.29
3170,826.29
3180,826.29
3190,826.29
3200,826.29
3210,826.29
3220,826.29
3230,826.3
3240,826.3
3250,826.3
3260,826.3
3270,826.3
3280,826.3
3290,826.3
3300,826.3
3310,826.3
3320,826.31
3330,826.31
3340,826.31
3350,826.31
3360,826.31
3370,826.31
3380,826.31
3390,826.31
3400,826.31
3410,826.31
3420,826.31
3430,826.31
3440,826.31
3450,826.31
3460,826.32
3470,826.32
3480,826.32
3490,826.32
3500,826.32
3510,826.32
3520,826.32
3530,826.32
3540,826.32
3550,826.32
3560,826.32
3570,826.32
3580,826.32
3590,826.32
3600,826.32
3610,826.32
3620,826.32
3630,826.32
3640,826.32
3650,826.32
3660,826.32
3670,826.32
3680,826.32
3690,826.32
3700,826.32
3710,826.32
3720,826.32
3730,826.32
3740,826.32
3750,826.32
3760,826.32
3770,826.32
3780,826.32
3790,826.32
3800,826.32
3810,826.32
3820,826.32
3830,826.32
3840,826.32
3850,826.32
3860,826.32
3870,826.32
3880,826.32
3890,826.32
3900,826.32
3910,826.32
3920,826.32
3930,826.32
3940,826.32
3950,826.32
3960,826.32
3970,826.32
3980,826.32
3990,826.32
4000,826.32
4010,826.32
4020,826.32
4030,826.32
4040,826.32
4050,826.32
4060,826.32
4070,826.32
4080,826.32
4090,826.32
4100,826.32
4110,826.32
4120,826.32
4130,826.32
4140,826.32
4150,826.32
4160,826.32
4170,826.32
4180,826.32
4190,826.32
4200,826.32
4210,826.32
4220,826.32
4230,826.32
4240,826.32
4250,826.32
4260,826.32
4270,826.32
4280,826.32
4290,826.32
4300,826.32
4310,826.32
4320,826.32
4330,826.32
4340,826.32
4350,826.32
4360,826.32
4370,826.32
4380,826.32
4390,826.32
4400,826.32
4410,826.32
4420,826.32
4430,826.32
4440,826.32
4450,826.32
4460,826.32
4470,826.32
4480,826.32
4490,826.32
4500,826.32
4510,826.32
4520,826.32
4530,826.32
4540,826.32
4550,826.32
4560,826.32
4570,826.32
4580,826.32
4590,826.32
4600,826.32
4610,826.32
4620,826.32
4630,826.32
4640,826.32
4650,826.32
4660,826.32
4670,826.32
4680,826.32
4690,826.32
4700,826.32
4710,826.32
4720,826.32
4730,826.32
4740,826.32
4750,826.32
4760,826.32
4770,826.32
4780,826.32
4790,826.32
4800,826.32
4810,826.32
4820,826.32
4830,826.32
4840,826.32
4850,826.32
4860,826.32
4870,826.32
4880,826.32
4890,826.32
4900,826.32
4910,826.32
4920,826.32
4930,826.32
4940,826.32
4950,826.32
4960,826.32
4970,826.32
4980,826.32
4990,826.32
5000,826.32
