%"Time","avg(Temp)"
1,300
2,300.99
3,305.11
4,309.17
5,313.19
6,317.16
7,321.06
8,324.9
9,328.66
10,332.33
11,335.91
12,339.4
13,342.8
14,346.11
15,349.33
16,352.45
17,355.5
18,358.47
19,361.36
20,364.17
21,366.92
22,369.61
23,372.24
24,374.81
25,377.33
26,379.8
27,382.23
28,384.61
29,386.94
30,389.25
31,391.51
32,393.74
33,395.93
34,398.1
35,400.23
36,402.34
37,404.42
38,406.47
39,408.5
40,410.5
41,412.48
42,414.43
43,416.37
44,418.28
45,420.17
46,422.04
47,423.9
48,425.73
49,427.55
50,429.35
51,431.13
52,432.89
53,434.64
54,436.38
55,438.1
56,439.8
57,441.49
58,443.17
59,444.83
60,446.48
61,448.11
62,449.73
63,451.34
64,452.94
65,454.52
66,456.1
67,457.66
68,459.21
69,460.75
70,462.28
71,463.8
72,465.31
73,466.81
74,468.29
75,469.77
76,471.24
77,472.7
78,474.15
79,475.59
80,477.03
81,478.45
82,479.87
83,481.27
84,482.67
85,484.06
86,485.45
87,486.82
88,488.19
89,489.55
90,490.9
91,492.24
92,493.58
93,494.91
94,496.24
95,497.55
96,498.86
97,500.16
98,501.46
99,502.75
100,504.03
101,505.31
102,506.58
103,507.85
104,509.1
105,510.36
106,511.6
107,512.84
108,514.08
109,515.31
110,516.53
111,517.75
112,518.96
113,520.17
114,521.37
115,522.57
116,523.76
117,524.95
118,526.13
119,527.31
120,528.48
121,529.65
122,530.81
123,531.97
124,533.12
125,534.27
126,535.41
127,536.55
128,537.69
129,538.82
130,539.94
131,541.06
132,542.18
133,543.29
134,544.4
135,545.51
136,546.61
137,547.7
138,548.79
139,549.88
140,550.97
141,552.05
142,553.12
143,554.2
144,555.26
145,556.33
146,557.39
147,558.45
148,559.5
149,560.55
150,561.6
151,562.64
152,563.68
153,564.72
154,565.75
155,566.78
156,567.81
157,568.83
158,569.85
159,570.86
160,571.88
161,572.89
162,573.89
163,574.89
164,575.89
165,576.89
166,577.88
167,578.87
168,579.86
169,580.85
170,581.83
171,582.8
172,583.78
173,584.75
174,585.72
175,586.69
176,587.65
177,588.61
178,589.57
179,590.52
180,591.47
181,592.42
182,593.37
183,594.31
184,595.25
185,596.19
186,597.13
187,598.06
188,598.99
189,599.92
190,600.84
191,601.76
192,602.68
193,603.6
194,604.52
195,605.43
196,606.34
197,607.24
198,608.15
199,609.05
200,609.95
201,610.84
202,611.74
203,612.63
204,613.52
205,614.4
206,615.29
207,616.17
208,617.05
209,617.93
210,618.8
211,619.67
212,620.54
213,621.41
214,622.28
215,623.14
216,624
217,624.86
218,625.72
219,626.57
220,627.42
221,628.27
222,629.12
223,629.96
224,630.8
225,631.64
226,632.48
227,633.32
228,634.15
229,634.98
230,635.81
231,636.64
232,637.46
233,638.29
234,639.11
235,639.92
236,640.74
237,641.55
238,642.37
239,643.18
240,643.98
241,644.79
242,645.59
243,646.39
244,647.19
245,647.99
246,648.78
247,649.58
248,650.37
249,651.16
250,651.94
251,652.73
252,653.51
253,654.29
254,655.07
255,655.85
256,656.62
257,657.39
258,658.16
259,658.93
260,659.7
261,660.46
262,661.22
263,661.98
264,662.74
265,663.5
266,664.25
267,665
268,665.75
269,666.5
270,667.25
271,667.99
272,668.73
273,669.48
274,670.21
275,670.95
276,671.68
277,672.42
278,673.15
279,673.87
280,674.6
281,675.33
282,676.05
283,676.77
284,677.49
285,678.2
286,678.92
287,679.63
288,680.34
289,681.05
290,681.76
291,682.46
292,683.17
293,683.87
294,684.57
295,685.26
296,685.96
297,686.65
298,687.34
299,688.03
300,688.72
301,689.41
302,690.09
303,690.77
304,691.45
305,692.13
306,692.81
307,693.48
308,694.15
309,694.82
310,695.49
311,696.16
312,696.82
313,697.48
314,698.14
315,698.8
316,699.46
317,700.11
318,700.77
319,701.42
320,702.07
321,702.71
322,703.36
323,704
324,704.64
325,705.28
326,705.92
327,706.56
328,707.19
329,707.82
330,708.45
331,709.08
332,709.7
333,710.33
334,710.95
335,711.57
336,712.19
337,712.8
338,713.42
339,714.03
340,714.64
341,715.25
342,715.86
343,716.46
344,717.06
345,717.66
346,718.26
347,718.86
348,719.45
349,720.05
350,720.64
351,721.23
352,721.81
353,722.4
354,722.98
355,723.56
356,724.14
357,724.72
358,725.29
359,725.86
360,726.43
361,727
362,727.57
363,728.14
364,728.7
365,729.26
366,729.82
367,730.38
368,730.93
369,731.48
370,732.03
371,732.58
372,733.13
373,733.68
374,734.22
375,734.76
376,735.3
377,735.83
378,736.37
379,736.9
380,737.43
381,737.96
382,738.49
383,739.01
384,739.54
385,740.06
386,740.58
387,741.09
388,741.61
389,742.12
390,742.63
391,743.14
392,743.65
393,744.15
394,744.65
395,745.15
396,745.65
397,746.15
398,746.64
399,747.13
400,747.62
401,748.11
402,748.6
403,749.08
404,749.56
405,750.04
406,750.52
407,751
408,751.47
409,751.94
410,752.41
411,752.88
412,753.35
413,753.81
414,754.27
415,754.73
416,755.19
417,755.64
418,756.1
419,756.55
420,757
421,757.45
422,757.89
423,758.33
424,758.78
425,759.22
426,759.65
427,760.09
428,760.52
429,760.95
430,761.38
431,761.81
432,762.23
433,762.66
434,763.08
435,763.5
436,763.91
437,764.33
438,764.74
439,765.15
440,765.56
441,765.97
442,766.38
443,766.78
444,767.18
445,767.58
446,767.98
447,768.37
448,768.77
449,769.16
450,769.55
451,769.93
452,770.32
453,770.7
454,771.09
455,771.47
456,771.84
457,772.22
458,772.59
459,772.97
460,773.34
461,773.7
462,774.07
463,774.44
464,774.8
465,775.16
466,775.52
467,775.88
468,776.23
469,776.58
470,776.94
471,777.28
472,777.63
473,777.98
474,778.32
475,778.66
476,779.01
477,779.34
478,779.68
479,780.02
480,780.35
481,780.68
482,781.01
483,781.34
484,781.66
485,781.99
486,782.31
487,782.63
488,782.95
489,783.27
490,783.58
491,783.9
492,784.21
493,784.52
494,784.83
495,785.13
496,785.44
497,785.74
498,786.04
499,786.34
500,786.64
501,786.94
502,787.23
503,787.53
504,787.82
505,788.11
506,788.4
507,788.69
508,788.97
509,789.25
510,789.54
511,789.82
512,790.1
513,790.37
514,790.65
515,790.92
516,791.19
517,791.47
518,791.73
519,792
520,792.27
521,792.53
522,792.8
523,793.06
524,793.32
525,793.58
526,793.83
527,794.09
528,794.34
529,794.6
530,794.85
531,795.1
532,795.34
533,795.59
534,795.84
535,796.08
536,796.32
537,796.56
538,796.8
539,797.04
540,797.28
541,797.51
542,797.75
543,797.98
544,798.21
545,798.44
546,798.67
547,798.9
548,799.12
549,799.35
550,799.57
551,799.79
552,800.01
553,800.23
554,800.45
555,800.66
556,800.88
557,801.09
558,801.31
559,801.52
560,801.73
561,801.94
562,802.14
563,802.35
564,802.55
565,802.76
566,802.96
567,803.16
568,803.36
569,803.56
570,803.76
571,803.95
572,804.15
573,804.34
574,804.54
575,804.73
576,804.92
577,805.11
578,805.29
579,805.48
580,805.67
581,805.85
582,806.04
583,806.22
584,806.4
585,806.58
586,806.76
587,806.94
588,807.11
589,807.29
590,807.46
591,807.64
592,807.81
593,807.98
594,808.15
595,808.32
596,808.49
597,808.66
598,808.82
599,808.99
600,809.15
601,809.31
602,809.48
603,809.64
604,809.8
605,809.96
606,810.11
607,810.27
608,810.43
609,810.58
610,810.74
611,810.89
612,811.04
613,811.19
614,811.34
615,811.49
616,811.64
617,811.79
618,811.94
619,812.08
620,812.23
621,812.37
622,812.51
623,812.65
624,812.8
625,812.94
626,813.08
627,813.21
628,813.35
629,813.49
630,813.62
631,813.76
632,813.89
633,814.03
634,814.16
635,814.29
636,814.42
637,814.55
638,814.68
639,814.81
640,814.94
641,815.06
642,815.19
643,815.31
644,815.44
645,815.56
646,815.68
647,815.81
648,815.93
649,816.05
650,816.17
651,816.29
652,816.4
653,816.52
654,816.64
655,816.75
656,816.87
657,816.98
658,817.1
659,817.21
660,817.32
661,817.43
662,817.54
663,817.65
664,817.76
665,817.87
666,817.98
667,818.09
668,818.19
669,818.3
670,818.41
671,818.51
672,818.61
673,818.72
674,818.82
675,818.92
676,819.02
677,819.12
678,819.22
679,819.32
680,819.42
681,819.52
682,819.62
683,819.71
684,819.81
685,819.9
686,820
687,820.09
688,820.19
689,820.28
690,820.37
691,820.46
692,820.56
693,820.65
694,820.74
695,820.83
696,820.91
697,821
698,821.09
699,821.18
700,821.26
701,821.35
702,821.44
703,821.52
704,821.61
705,821.69
706,821.77
707,821.86
708,821.94
709,822.02
710,822.1
711,822.18
712,822.26
713,822.34
714,822.42
715,822.5
716,822.58
717,822.65
718,822.73
719,822.81
720,822.88
721,822.96
722,823.03
723,823.11
724,823.18
725,823.26
726,823.33
727,823.4
728,823.47
729,823.55
730,823.62
731,823.69
732,823.76
733,823.83
734,823.9
735,823.97
736,824.04
737,824.1
738,824.17
739,824.24
740,824.3
741,824.37
742,824.44
743,824.5
744,824.57
745,824.63
746,824.7
747,824.76
748,824.82
749,824.89
750,824.95
751,825.01
752,825.07
753,825.13
754,825.19
755,825.25
756,825.31
757,825.37
758,825.43
759,825.49
760,825.55
761,825.61
762,825.67
763,825.72
764,825.78
765,825.84
766,825.89
767,825.95
768,826.01
769,826.06
770,826.11
771,826.17
772,826.22
773,826.28
774,826.33
775,826.38
776,826.44
777,826.49
778,826.54
779,826.59
780,826.64
781,826.69
782,826.74
783,826.79
784,826.84
785,826.89
786,826.94
787,826.99
788,827.04
789,827.09
790,827.14
791,827.19
792,827.23
793,827.28
794,827.33
795,827.37
796,827.42
797,827.46
798,827.51
799,827.56
800,827.6
801,827.64
802,827.69
803,827.73
804,827.78
805,827.82
806,827.86
807,827.91
808,827.95
809,827.99
810,828.03
811,828.07
812,828.12
813,828.16
814,828.2
815,828.24
816,828.28
817,828.32
818,828.36
819,828.4
820,828.44
821,828.48
822,828.52
823,828.55
824,828.59
825,828.63
826,828.67
827,828.71
828,828.74
829,828.78
830,828.82
831,828.85
832,828.89
833,828.93
834,828.96
835,829
836,829.03
837,829.07
838,829.1
839,829.14
840,829.17
841,829.21
842,829.24
843,829.27
844,829.31
845,829.34
846,829.37
847,829.41
848,829.44
849,829.47
850,829.5
851,829.54
852,829.57
853,829.6
854,829.63
855,829.66
856,829.69
857,829.72
858,829.75
859,829.78
860,829.81
861,829.84
862,829.87
863,829.9
864,829.93
865,829.96
866,829.99
867,830.02
868,830.05
869,830.08
870,830.11
871,830.13
872,830.16
873,830.19
874,830.22
875,830.24
876,830.27
877,830.3
878,830.32
879,830.35
880,830.38
881,830.4
882,830.43
883,830.45
884,830.48
885,830.51
886,830.53
887,830.56
888,830.58
889,830.61
890,830.63
891,830.66
892,830.68
893,830.7
894,830.73
895,830.75
896,830.78
897,830.8
898,830.82
899,830.85
900,830.87
901,830.89
902,830.91
903,830.94
904,830.96
905,830.98
906,831
907,831.03
908,831.05
909,831.07
910,831.09
911,831.11
912,831.13
913,831.15
914,831.18
915,831.2
916,831.22
917,831.24
918,831.26
919,831.28
920,831.3
921,831.32
922,831.34
923,831.36
924,831.38
925,831.4
926,831.42
927,831.44
928,831.46
929,831.47
930,831.49
931,831.51
932,831.53
933,831.55
934,831.57
935,831.59
936,831.6
937,831.62
938,831.64
939,831.66
940,831.68
941,831.69
942,831.71
943,831.73
944,831.74
945,831.76
946,831.78
947,831.8
948,831.81
949,831.83
950,831.85
951,831.86
952,831.88
953,831.89
954,831.91
955,831.93
956,831.94
957,831.96
958,831.97
959,831.99
960,832
961,832.02
962,832.03
963,832.05
964,832.06
965,832.08
966,832.09
967,832.11
968,832.12
969,832.14
970,832.15
971,832.17
972,832.18
973,832.2
974,832.21
975,832.22
976,832.24
977,832.25
978,832.26
979,832.28
980,832.29
981,832.31
982,832.32
983,832.33
984,832.34
985,832.36
986,832.37
987,832.38
988,832.4
989,832.41
990,832.42
991,832.43
992,832.45
993,832.46
994,832.47
995,832.48
996,832.5
997,832.51
998,832.52
999,832.53
1000,832.54
1001,832.55
1002,832.57
1003,832.58
1004,832.59
1005,832.6
1006,832.61
1007,832.62
1008,832.63
1009,832.65
1010,832.66
1011,832.67
1012,832.68
1013,832.69
1014,832.7
1015,832.71
1016,832.72
1017,832.73
1018,832.74
1019,832.75
1020,832.76
1021,832.77
1022,832.78
1023,832.79
1024,832.8
1025,832.81
1026,832.82
1027,832.83
1028,832.84
1029,832.85
1030,832.86
1031,832.87
1032,832.88
1033,832.89
1034,832.9
1035,832.91
1036,832.92
1037,832.93
1038,832.94
1039,832.95
1040,832.96
1041,832.96
1042,832.97
1043,832.98
1044,832.99
1045,833
1046,833.01
1047,833.02
1048,833.03
1049,833.03
1050,833.04
1051,833.05
1052,833.06
1053,833.07
1054,833.07
1055,833.08
1056,833.09
1057,833.1
1058,833.11
1059,833.12
1060,833.12
1061,833.13
1062,833.14
1063,833.15
1064,833.15
1065,833.16
1066,833.17
1067,833.18
1068,833.18
1069,833.19
1070,833.2
1071,833.21
1072,833.21
1073,833.22
1074,833.23
1075,833.23
1076,833.24
1077,833.25
1078,833.26
1079,833.26
1080,833.27
1081,833.28
1082,833.28
1083,833.29
1084,833.3
1085,833.3
1086,833.31
1087,833.32
1088,833.32
1089,833.33
1090,833.34
1091,833.34
1092,833.35
1093,833.36
1094,833.36
1095,833.37
1096,833.37
1097,833.38
1098,833.39
1099,833.39
1100,833.4
1101,833.4
1102,833.41
1103,833.42
1104,833.42
1105,833.43
1106,833.43
1107,833.44
1108,833.44
1109,833.45
1110,833.46
1111,833.46
1112,833.47
1113,833.47
1114,833.48
1115,833.48
1116,833.49
1117,833.49
1118,833.5
1119,833.5
1120,833.51
1121,833.52
1122,833.52
1123,833.53
1124,833.53
1125,833.54
1126,833.54
1127,833.55
1128,833.55
1129,833.56
1130,833.56
1131,833.57
1132,833.57
1133,833.58
1134,833.58
1135,833.58
1136,833.59
1137,833.59
1138,833.6
1139,833.6
1140,833.61
1141,833.61
1142,833.62
1143,833.62
1144,833.63
1145,833.63
1146,833.63
1147,833.64
1148,833.64
1149,833.65
1150,833.65
1151,833.66
1152,833.66
1153,833.66
1154,833.67
1155,833.67
1156,833.68
1157,833.68
1158,833.69
1159,833.69
1160,833.69
1161,833.7
1162,833.7
1163,833.71
1164,833.71
1165,833.71
1166,833.72
1167,833.72
1168,833.72
1169,833.73
1170,833.73
1171,833.74
1172,833.74
1173,833.74
1174,833.75
1175,833.75
1176,833.75
1177,833.76
1178,833.76
1179,833.76
1180,833.77
1181,833.77
1182,833.77
1183,833.78
1184,833.78
1185,833.79
1186,833.79
1187,833.79
1188,833.8
1189,833.8
1190,833.8
1191,833.8
1192,833.81
1193,833.81
1194,833.81
1195,833.82
1196,833.82
1197,833.82
1198,833.83
1199,833.83
1200,833.83
1201,833.84
1202,833.84
1203,833.84
1204,833.85
1205,833.85
1206,833.85
1207,833.85
1208,833.86
1209,833.86
1210,833.86
1211,833.87
1212,833.87
1213,833.87
1214,833.87
1215,833.88
1216,833.88
1217,833.88
1218,833.88
1219,833.89
1220,833.89
1221,833.89
1222,833.9
1223,833.9
1224,833.9
1225,833.9
1226,833.91
1227,833.91
1228,833.91
1229,833.91
1230,833.92
1231,833.92
1232,833.92
1233,833.92
1234,833.92
1235,833.93
1236,833.93
1237,833.93
1238,833.93
1239,833.94
1240,833.94
1241,833.94
1242,833.94
1243,833.95
1244,833.95
1245,833.95
1246,833.95
1247,833.95
1248,833.96
1249,833.96
1250,833.96
1251,833.96
1252,833.96
1253,833.97
1254,833.97
1255,833.97
1256,833.97
1257,833.97
1258,833.98
1259,833.98
1260,833.98
1261,833.98
1262,833.98
1263,833.99
1264,833.99
1265,833.99
1266,833.99
1267,833.99
1268,834
1269,834
1270,834
1271,834
1272,834
1273,834
1274,834.01
1275,834.01
1276,834.01
1277,834.01
1278,834.01
1279,834.01
1280,834.02
1281,834.02
1282,834.02
1283,834.02
1284,834.02
1285,834.02
1286,834.03
1287,834.03
1288,834.03
1289,834.03
1290,834.03
1291,834.03
1292,834.04
1293,834.04
1294,834.04
1295,834.04
1296,834.04
1297,834.04
1298,834.05
1299,834.05
1300,834.05
1301,834.05
1302,834.05
1303,834.05
1304,834.05
1305,834.06
1306,834.06
1307,834.06
1308,834.06
1309,834.06
1310,834.06
1311,834.06
1312,834.07
1313,834.07
1314,834.07
1315,834.07
1316,834.07
1317,834.07
1318,834.07
1319,834.07
1320,834.08
1321,834.08
1322,834.08
1323,834.08
1324,834.08
1325,834.08
1326,834.08
1327,834.08
1328,834.09
1329,834.09
1330,834.09
1331,834.09
1332,834.09
1333,834.09
1334,834.09
1335,834.09
1336,834.1
1337,834.1
1338,834.1
1339,834.1
1340,834.1
1341,834.1
1342,834.1
1343,834.1
1344,834.1
1345,834.1
1346,834.11
1347,834.11
1348,834.11
1349,834.11
1350,834.11
1351,834.11
1352,834.11
1353,834.11
1354,834.11
1355,834.12
1356,834.12
1357,834.12
1358,834.12
1359,834.12
1360,834.12
1361,834.12
1362,834.12
1363,834.12
1364,834.12
1365,834.12
1366,834.13
1367,834.13
1368,834.13
1369,834.13
1370,834.13
1371,834.13
1372,834.13
1373,834.13
1374,834.13
1375,834.13
1376,834.13
1377,834.14
1378,834.14
1379,834.14
1380,834.14
1381,834.14
1382,834.14
1383,834.14
1384,834.14
1385,834.14
1386,834.14
1387,834.14
1388,834.14
1389,834.15
1390,834.15
1391,834.15
1392,834.15
1393,834.15
1394,834.15
1395,834.15
1396,834.15
1397,834.15
1398,834.15
1399,834.15
1400,834.15
1401,834.15
1402,834.15
1403,834.16
1404,834.16
1405,834.16
1406,834.16
1407,834.16
1408,834.16
1409,834.16
1410,834.16
1411,834.16
1412,834.16
1413,834.16
1414,834.16
1415,834.16
1416,834.16
1417,834.16
1418,834.17
1419,834.17
1420,834.17
1421,834.17
1422,834.17
1423,834.17
1424,834.17
1425,834.17
1426,834.17
1427,834.17
1428,834.17
1429,834.17
1430,834.17
1431,834.17
1432,834.17
1433,834.17
1434,834.17
1435,834.18
1436,834.18
1437,834.18
1438,834.18
1439,834.18
1440,834.18
1441,834.18
1442,834.18
1443,834.18
1444,834.18
1445,834.18
1446,834.18
1447,834.18
1448,834.18
1449,834.18
1450,834.18
1451,834.18
1452,834.18
1453,834.18
1454,834.19
1455,834.19
1456,834.19
1457,834.19
1458,834.19
1459,834.19
1460,834.19
1461,834.19
1462,834.19
1463,834.19
1464,834.19
1465,834.19
1466,834.19
1467,834.19
1468,834.19
1469,834.19
1470,834.19
1471,834.19
1472,834.19
1473,834.19
1474,834.19
1475,834.19
1476,834.19
1477,834.2
1478,834.2
1479,834.2
1480,834.2
1481,834.2
1482,834.2
1483,834.2
1484,834.2
1485,834.2
1486,834.2
1487,834.2
1488,834.2
1489,834.2
1490,834.2
1491,834.2
1492,834.2
1493,834.2
1494,834.2
1495,834.2
1496,834.2
1497,834.2
1498,834.2
1499,834.2
1500,834.2
1501,834.2
1502,834.2
1503,834.21
1504,834.21
1505,834.21
1506,834.21
1507,834.21
1508,834.21
1509,834.21
1510,834.21
1511,834.21
1512,834.21
1513,834.21
1514,834.21
1515,834.21
1516,834.21
1517,834.21
1518,834.21
1519,834.21
1520,834.21
1521,834.21
1522,834.21
1523,834.21
1524,834.21
1525,834.21
1526,834.21
1527,834.21
1528,834.21
1529,834.21
1530,834.21
1531,834.21
1532,834.21
1533,834.21
1534,834.21
1535,834.21
1536,834.21
1537,834.22
1538,834.22
1539,834.22
1540,834.22
1541,834.22
1542,834.22
1543,834.22
1544,834.22
1545,834.22
1546,834.22
1547,834.22
1548,834.22
1549,834.22
1550,834.22
1551,834.22
1552,834.22
1553,834.22
1554,834.22
1555,834.22
1556,834.22
1557,834.22
1558,834.22
1559,834.22
1560,834.22
1561,834.22
1562,834.22
1563,834.22
1564,834.22
1565,834.22
1566,834.22
1567,834.22
1568,834.22
1569,834.22
1570,834.22
1571,834.22
1572,834.22
1573,834.22
1574,834.22
1575,834.22
1576,834.22
1577,834.22
1578,834.22
1579,834.22
1580,834.22
1581,834.22
1582,834.22
1583,834.22
1584,834.22
1585,834.22
1586,834.22
1587,834.22
1588,834.22
1589,834.22
1590,834.22
1591,834.22
1592,834.22
1593,834.22
1594,834.22
1595,834.22
1596,834.22
1597,834.22
1598,834.22
1599,834.22
1600,834.22
1601,834.22
1602,834.23
1603,834.23
1604,834.23
1605,834.23
1606,834.23
1607,834.23
1608,834.23
1609,834.23
1610,834.23
1611,834.23
1612,834.23
1613,834.23
1614,834.23
1615,834.23
1616,834.23
1617,834.23
1618,834.23
1619,834.23
1620,834.23
1621,834.23
1622,834.23
1623,834.23
1624,834.23
1625,834.23
1626,834.23
1627,834.23
1628,834.23
1629,834.23
1630,834.23
1631,834.23
1632,834.23
1633,834.23
1634,834.23
1635,834.23
1636,834.23
1637,834.23
1638,834.23
1639,834.23
1640,834.23
1641,834.23
1642,834.23
1643,834.23
1644,834.23
1645,834.23
1646,834.23
1647,834.23
1648,834.23
1649,834.23
1650,834.23
1651,834.23
1652,834.23
1653,834.23
1654,834.23
1655,834.23
1656,834.23
1657,834.23
1658,834.23
1659,834.23
1660,834.23
1661,834.23
1662,834.23
1663,834.23
1664,834.23
1665,834.23
1666,834.23
1667,834.23
1668,834.23
1669,834.23
1670,834.23
1671,834.23
1672,834.23
1673,834.23
1674,834.23
1675,834.23
1676,834.23
1677,834.23
1678,834.23
1679,834.23
1680,834.23
1681,834.23
1682,834.23
1683,834.23
1684,834.23
1685,834.23
1686,834.23
1687,834.23
1688,834.23
1689,834.23
1690,834.23
1691,834.23
1692,834.23
1693,834.23
1694,834.23
1695,834.23
1696,834.23
1697,834.23
1698,834.23
1699,834.23
1700,834.23
1701,834.23
1702,834.23
1703,834.23
1704,834.23
1705,834.23
1706,834.23
1707,834.23
1708,834.23
1709,834.23
1710,834.23
1711,834.23
1712,834.23
1713,834.23
1714,834.23
1715,834.23
1716,834.23
1717,834.23
1718,834.23
1719,834.23
1720,834.23
1721,834.23
1722,834.23
1723,834.23
1724,834.23
1725,834.23
1726,834.23
1727,834.23
1728,834.23
1729,834.23
1730,834.23
1731,834.23
1732,834.23
1733,834.23
1734,834.23
1735,834.23
1736,834.23
1737,834.23
1738,834.23
1739,834.23
1740,834.23
1741,834.23
1742,834.23
1743,834.23
1744,834.23
1745,834.23
1746,834.23
1747,834.23
1748,834.23
1749,834.23
1750,834.23
1751,834.23
1752,834.23
1753,834.23
1754,834.23
1755,834.23
1756,834.23
1757,834.23
1758,834.23
1759,834.23
1760,834.23
1761,834.23
1762,834.23
1763,834.23
1764,834.23
1765,834.23
1766,834.23
1767,834.23
1768,834.23
1769,834.23
1770,834.23
1771,834.23
1772,834.23
1773,834.23
1774,834.23
